F1_a(N);Delta_u13_a(mm);F2_a(N);Delta_u24_a(mm);F1_b2(N);Delta_u13_b2(mm);F2_b2(N);Delta_u24_b2(mm)
5.90757;0;-123.653;0;0.646228;0;-163.771;0
28.2683;0.000467926;-134.176;-0.000470366;16.4303;0.00042937;-172.978;-0.00004316
60.494;0.00087361;-146.671;-0.000672248;36.1603;0.00102851;-182.843;-0.00010875
90.7467;0.00158375;-164.428;-0.00100154;55.8903;0.0011931;-193.366;-0.0010524
127.576;0.00197269;-180.87;-0.001645227;86.8007;0.00161707;-205.861;-0.00110236
165.063;0.00261795;-195.996;-0.001976177;117.053;0.00228563;-219.673;-0.00147884
195.974;0.00339514;-220.33;-0.00254846;153.883;0.0028161;-235.457;-0.00164548
242.01;0.00408609;-241.376;-0.003413582;189.397;0.00329698;-255.844;-0.00261317
285.416;0.00478796;-264.394;-0.00392549;229.515;0.00383006;-276.89;-0.00314478
341.318;0.00564874;-289.385;-0.00445841;274.894;0.004873811;-298.593;-0.0035783
393.274;0.00663334;-316.35;-0.00523045;321.588;0.005447054;-321.611;-0.00439826
456.41;0.00751754;-346.602;-0.0060589;377.49;0.00659318;-349.233;-0.00495814
523.492;0.00897984;-377.513;-0.00704287;430.761;0.00751817;-380.801;-0.00579377
594.52;0.01016764;-415.658;-0.00787883;492.582;0.00861504;-413.027;-0.00670842
667.522;0.01139404;-457.091;-0.00885139;560.979;0.00975328;-445.253;-0.00759175
741.838;0.01241714;-491.947;-0.01015356;632.665;0.01087118;-480.767;-0.00858515
831.281;0.01402494;-535.353;-0.01111425;714.216;0.01226284;-519.569;-0.00969319
920.724;0.01555374;-580.074;-0.01239214;799.055;0.01359808;-560.344;-0.01083749
1011.48;0.01711226;-625.454;-0.01359173;883.894;0.01499041;-603.093;-0.01199339
1110.13;0.01871288;-674.779;-0.01478715;973.337;0.01659464;-647.157;-0.01314041
1209.44;0.02043981;-725.419;-0.0161384;1056.86;0.01813672;-691.878;-0.01445882
1312.04;0.02226851;-773.429;-0.01752618;1151.57;0.0197225;-739.23;-0.01559397
1412.66;0.02397881;-825.385;-0.01882109;1254.16;0.02109901;-787.24;-0.01697897
1513.28;0.02586471;-873.394;-0.0202725;1350.18;0.02283077;-836.565;-0.01820343
1615.22;0.02751176;-924.035;-0.0216349;1444.23;0.02462497;-890.494;-0.0197456
1727.68;0.02921322;-978.621;-0.0229658;1546.17;0.02643697;-934.557;-0.0210951
1822.39;0.031007158;-1028.6;-0.0245007;1656;0.02810127;-987.171;-0.02247711
1929.59;0.032917905;-1086.48;-0.0259466;1755.3;0.02997707;-1039.78;-0.02388289
2044.68;0.03459313;-1137.78;-0.0275772;1864.48;0.03159527;-1092.4;-0.02538665
2147.93;0.03659648;-1189.73;-0.0291609;1968.39;0.03351457;-1143.7;-0.02691621
2259.74;0.03855003;-1243;-0.0307675;2072.3;0.03546747;-1196.97;-0.02828566
2363.65;0.0405614;-1298.91;-0.0321446;2178.19;0.03699697;-1250.24;-0.02987816
2467.56;0.04249718;-1353.49;-0.0338445;2281.44;0.03939437;-1302.85;-0.03146118
2575.42;0.04449125;-1405.45;-0.0354276;2386.67;0.04130147;-1359.41;-0.03326642
2685.91;0.04669295;-1463.32;-0.037497;2496.5;0.04329037;-1410.71;-0.03479977
2789.82;0.04882384;-1516.59;-0.0389631;2597.78;0.04527447;-1463.32;-0.03652029
2901.62;0.05081284;-1569.21;-0.0411057;2712.87;0.04746027;-1518.57;-0.038593372
3016.71;0.05359014;-1620.51;-0.0431844;2817.44;0.04970107;-1569.21;-0.04043938
3123.91;0.05593024;-1676.41;-0.0455964;2912.8;0.05200557;-1618.53;-0.04248047
3222.56;0.05901304;-1726.39;-0.0475538;3007.5;0.05426247;-1662.6;-0.04436007
3318.58;0.06197034;-1777.69;-0.0501879;3094.97;0.05674987;-1711.92;-0.04658386
3415.26;0.06507574;-1825.7;-0.0529455;3189.02;0.05923117;-1753.35;-0.04886979
3506.02;0.06834494;-1869.76;-0.055805;3271.89;0.06212487;-1799.39;-0.05135744
3599.41;0.07211254;-1918.43;-0.0589385;3353.44;0.06529577;-1836.22;-0.05403052
3678.98;0.07602824;-1957.89;-0.0622424;3434.33;0.06831757;-1880.28;-0.05674759
3754.62;0.08018134;-1996.69;-0.0659131;3515.88;0.07194537;-1919.09;-0.05947298
3828.93;0.08429124;-2034.18;-0.0695455;3594.15;0.07572057;-1959.2;-0.06347847
3896.67;0.08939874;-2061.14;-0.0735195;3669.78;0.08008597;-1999.98;-0.06703687
3963.1;0.09438904;-2099.29;-0.0781368;3748.04;0.08476197;-2035.49;-0.07113757
4036.76;0.09982904;-2132.17;-0.0824781;3820.38;0.08969847;-2071.67;-0.07560217
4088.71;0.10534464;-2168.34;-0.0878208;3889.44;0.09511687;-2102.58;-0.08029727
4159.08;0.11164664;-2195.31;-0.0928022;3949.29;0.10080847;-2136.77;-0.08515167
4214.98;0.11800344;-2220.96;-0.0983501;4016.37;0.10680097;-2165.71;-0.09046737
4261.68;0.12459034;-2249.24;-0.1039302;4065.69;0.11322167;-2195.96;-0.09569917
4318.9;0.13122414;-2278.17;-0.1098516;4128.83;0.11967907;-2226.22;-0.10161187
4371.51;0.13804204;-2304.48;-0.1156201;4187.36;0.12635797;-2256.47;-0.10760557
4418.2;0.14505344;-2326.84;-0.1214005;4233.4;0.13361017;-2279.49;-0.11373647
4467.53;0.15225654;-2349.86;-0.1275562;4297.19;0.14062027;-2305.14;-0.11994367
4512.25;0.15943114;-2370.25;-0.1338553;4348.49;0.14826887;-2332.1;-0.12638757
4558.95;0.16695474;-2395.24;-0.140038;4396.5;0.15568027;-2353.15;-0.13323337
4601.04;0.17434374;-2424.83;-0.1464596;4443.85;0.16336617;-2374.85;-0.13985347
4643.13;0.18186834;-2440.62;-0.1529969;4492.52;0.17169917;-2403.79;-0.14670397
4685.22;0.18936034;-2459.69;-0.1594368;4537.9;0.17968297;-2426.81;-0.15391757
4735.2;0.19704094;-2482.71;-0.1657489;4581.96;0.18796127;-2451.14;-0.16104357
4766.77;0.20478214;-2502.44;-0.1724463;4617.48;0.19656367;-2476.13;-0.16825647
4807.54;0.21238714;-2520.19;-0.1790642;4664.17;0.20498007;-2494.55;-0.17558277
4845.69;0.22049214;-2540.58;-0.1855995;4706.92;0.21361107;-2518.22;-0.18294047
4881.2;0.22819314;-2557.68;-0.1922405;4750.99;0.22229107;-2535.98;-0.19056957
4918.69;0.23618314;-2580.04;-0.1991071;4791.76;0.23109707;-2560.97;-0.19831937
4951.57;0.24416214;-2596.48;-0.2058803;4829.91;0.24026607;-2577.41;-0.20616817
4994.32;0.25239214;-2612.93;-0.2127273;4866.08;0.24932507;-2599.11;-0.21435617
5029.84;0.26038414;-2631.34;-0.2198413;4900.93;0.25853407;-2617.53;-0.22233247
5064.69;0.26891314;-2645.81;-0.2265933;4954.21;0.26819607;-2639.23;-0.23038467
5099.55;0.27728214;-2660.28;-0.2339593;4984.46;0.27745107;-2657.65;-0.23826907
5131.78;0.28595814;-2682.64;-0.2410803;5019.97;0.28692907;-2675.4;-0.24694657
5162.03;0.29427914;-2694.48;-0.2491293;5064.69;0.29629707;-2693.16;-0.25519857
5196.89;0.30323214;-2719.47;-0.2561133;5101.52;0.30604707;-2710.92;-0.26370857
5227.14;0.31236314;-2728.68;-0.2635543;5133.75;0.31613407;-2729.33;-0.27227257
5254.1;0.32111414;-2745.12;-0.2711443;5165.97;0.32614707;-2743.8;-0.28088157
5293.56;0.33035714;-2764.85;-0.2787553;5196.23;0.33658207;-2758.27;-0.28983357
5317.9;0.33942714;-2777.34;-0.2865833;5231.74;0.34689407;-2776.03;-0.29908957
5358.01;0.34900414;-2793.13;-0.2946513;5264.63;0.35749707;-2798.39;-0.30792757
5390.9;0.35854514;-2812.2;-0.3027583;5300.14;0.36795307;-2813.51;-0.31720457
5419.18;0.36854614;-2826.01;-0.3108203;5338.28;0.37844707;-2830.61;-0.32627857
5446.8;0.37822014;-2836.53;-0.3191903;5363.93;0.38931307;-2843.77;-0.33563557
5476.39;0.38827314;-2852.32;-0.3281163;5392.87;0.39986307;-2858.89;-0.34494457
5504.67;0.39839414;-2869.42;-0.3361803;5423.78;0.41065207;-2875.34;-0.35439057
5536.24;0.40860714;-2884.54;-0.3447103;5453.38;0.42166807;-2891.78;-0.36395857
5562.55;0.41866714;-2898.35;-0.3533203;5483.63;0.43276407;-2904.27;-0.37356657
5588.2;0.42904214;-2914.14;-0.3621523;5521.12;0.44362507;-2922.03;-0.38326257
5615.82;0.43943814;-2927.95;-0.3708583;5547.42;0.45476807;-2935.18;-0.39300757
5640.81;0.44991214;-2940.44;-0.3798013;5574.39;0.46618107;-2945.05;-0.40264857
5673.04;0.46058114;-2953.6;-0.3887393;5598.06;0.47757507;-2960.17;-0.41258357
5698.03;0.47125614;-2968.07;-0.3976353;5627.66;0.48879807;-2979.9;-0.42239457
5728.94;0.48198914;-2979.9;-0.4069273;5655.94;0.50035607;-2987.8;-0.43292157
5754.59;0.49285014;-2994.37;-0.4161323;5682.9;0.51231807;-2999.63;-0.44322157
5782.21;0.50379614;-3007.53;-0.4254343;5710.53;0.52410507;-3017.39;-0.45375457
5811.81;0.51497914;-3016.08;-0.4349033;5737.49;0.53571807;-3029.23;-0.46428857
5836.14;0.52627114;-3030.54;-0.4446503;5767.74;0.54750107;-3038.44;-0.47422957
5857.84;0.53772214;-3046.33;-0.4544023;5782.21;0.55906607;-3049.62;-0.48448657
5882.83;0.54904314;-3056.19;-0.4643263;5805.89;0.57103507;-3068.69;-0.49484357
5896.65;0.56034714;-3071.98;-0.4745083;5831.54;0.58282107;-3078.55;-0.50495857
5926.24;0.57152614;-3083.82;-0.4836493;5859.82;0.59495107;-3082.5;-0.51550557
5947.94;0.58308014;-3092.37;-0.4936013;5882.18;0.60694607;-3096.31;-0.52621257
5981.48;0.59476114;-3106.18;-0.5035983;5903.22;0.61902407;-3116.7;-0.53685757
5998.58;0.60634714;-3114.07;-0.5136163;5925.58;0.63102607;-3124.59;-0.54729957
6024.89;0.61830214;-3126.56;-0.5237053;5945.31;0.64319807;-3138.4;-0.55824557
6039.36;0.63011814;-3137.74;-0.5338163;5961.1;0.65578707;-3147.61;-0.56893657
6061.72;0.64215814;-3147.61;-0.5442813;5980.17;0.66797307;-3156.16;-0.57990557
6085.4;0.65402414;-3160.76;-0.5546353;6006.48;0.68073007;-3162.08;-0.59092557
6105.78;0.66602814;-3168.66;-0.5649453;6031.47;0.69341507;-3181.81;-0.60219057
6125.51;0.67828214;-3177.86;-0.5756103;6051.2;0.70604507;-3185.75;-0.61322157
6144.59;0.69059614;-3189.7;-0.5860293;6068.3;0.71866607;-3192.99;-0.62442357
6164.97;0.70286214;-3196.28;-0.5970473;6083.42;0.73141107;-3201.54;-0.63543757
6186.68;0.71538514;-3209.43;-0.6081003;6105.78;0.74390307;-3219.95;-0.64669257
6205.75;0.72787714;-3217.32;-0.6189493;6115.65;0.75680007;-3225.21;-0.65836757
6223.51;0.74035614;-3227.19;-0.6298533;6143.93;0.77011607;-3233.76;-0.66960057
6239.95;0.75276814;-3236.4;-0.6408893;6165.63;0.78326807;-3242.97;-0.68165357
6264.94;0.76556714;-3251.52;-0.6521863;6179.44;0.79664607;-3250.86;-0.69343257
6282.04;0.77837114;-3252.84;-0.6634843;6190.62;0.80965107;-3257.44;-0.70539357
6297.82;0.79132214;-3268.62;-0.6750143;6209.04;0.82285907;-3268.62;-0.71716457
6312.29;0.80449214;-3276.51;-0.6865973;6234.69;0.83633307;-3271.25;-0.72894457
6332.02;0.81753414;-3280.46;-0.6984173;6248.5;0.84947107;-3279.8;-0.74104657
6344.52;0.83020114;-3296.24;-0.7105453;6264.94;0.86297607;-3293.61;-0.75296557
6359.64;0.84368914;-3298.87;-0.7218343;6277.44;0.87630807;-3300.85;-0.76507957
6380.69;0.85683814;-3305.45;-0.7338413;6290.59;0.89010007;-3306.11;-0.77735357
6400.42;0.87009814;-3317.29;-0.7456593;6307.03;0.90362507;-3310.71;-0.78963157
6416.2;0.88326814;-3319.26;-0.7574423;6317.55;0.91711007;-3317.29;-0.80203257
6431.99;0.89674714;-3329.13;-0.7697283;6328.08;0.93087607;-3331.1;-0.81453057
6446.46;0.91029214;-3339.65;-0.7820193;6343.86;0.94460007;-3337.02;-0.82703057
6456.32;0.92380814;-3342.28;-0.7941823;6358.33;0.95856207;-3340.31;-0.83967157
6475.4;0.93709214;-3344.91;-0.8064133;6362.93;0.97240207;-3343.6;-0.85266957
6489.86;0.95078414;-3356.75;-0.8191413;6387.27;0.98641907;-3348.86;-0.86564657
6498.41;0.96460914;-3369.24;-0.8316263;6396.47;1.00058207;-3363.98;-0.87875057
6515.51;0.97827314;-3371.22;-0.8442813;6405.68;1.01464907;-3364.64;-0.89147257
6524.72;0.99241014;-3372.53;-0.8570303;6408.97;1.02885107;-3365.96;-0.90473857
6535.9;1.00635014;-3387;-0.8700893;6428.04;1.04358707;-3375.82;-0.91822057
6547.74;1.02052714;-3388.32;-0.8830113;6436.59;1.05758707;-3377.79;-0.93184357
6556.29;1.03459314;-3390.29;-0.8962113;6445.14;1.07198107;-3387.66;-0.94520257
6569.44;1.04843214;-3402.13;-0.9094923;6444.48;1.08686507;-3381.74;-0.95923457
6580.62;1.06286314;-3403.44;-0.9227593;;;;
6588.51;1.07718614;-3410.02;-0.9361403;;;;
6588.51;1.09149214;-3411.99;-0.9497683;;;;
